Wavelength (nm),Sum(calc),Cr I (1.8e-2),Cr II (1.8e-1),Fe I (1.1e-1),Fe II (6.0e-1),Fe III (8.0e-5),Ni I (2.3e-2),Ni II (7.1e-2),Ni III (2.4e-6)
199.51,2.405e-28,,,,,2.405e-28,,,
199.52,2.133e-27,,,,,2.133e-27,,,
199.54,1.080e-21,,,,1.079e-21,1.465e-25,,,
199.56,8.867e-20,,,,8.866e-20,8.408e-24,,,
199.57,7.511e-19,,,,7.511e-19,5.954e-23,,,
199.59,4.710e-17,,,,4.710e-17,2.608e-21,,,
199.61,2.467e-15,,,,2.467e-15,9.544e-20,,,
199.62,1.669e-14,,,,1.669e-14,5.396e-19,,,
199.64,6.674e-13,,,,6.673e-13,1.507e-17,,,
199.65,3.945e-12,,,,3.945e-12,7.447e-17,,,
199.67,1.204e-10,,,,1.204e-10,1.588e-15,,,
199.69,3.071e-9,,,,3.071e-9,2.829e-14,,,
199.7,1.450e-8,,,,1.450e-8,1.116e-13,,,
199.72,2.823e-7,,,,2.823e-7,1.517e-12,,,
199.74,4.591e-6,,,,4.591e-6,1.723e-11,,,
199.75,1.731e-5,,,,1.731e-5,5.429e-11,,,
199.77,2.149e-4,,,,2.149e-4,4.707e-10,,,
199.79,2.229e-3,,,,2.229e-3,3.409e-9,,,
199.8,6.710e-3,,,,6.710e-3,8.574e-9,,,
199.82,5.313e-2,,,,5.313e-2,4.740e-8,,,
199.84,3.515e-1,,,,3.515e-1,2.189e-7,,,
199.85,8.449e-1,,,,8.449e-1,4.397e-7,,,
199.87,4.267e+0,,,,4.267e+0,1.550e-6,,,
199.89,1.800e+1,,,,1.800e+1,4.567e-6,,,
199.9,3.456e+1,,,,3.456e+1,7.328e-6,,,
199.92,1.113e+2,,,,1.113e+2,1.650e-5,,,
199.94,2.994e+2,,,,2.994e+2,3.116e-5,,,
199.95,4.590e+2,,,,4.590e+2,4.015e-5,,,
199.97,9.428e+2,,,,9.428e+2,5.915e-5,,,
199.99,1.618e+3,,,,1.618e+3,7.653e-5,,,
200,1.980e+3,,,,1.980e+3,8.465e-5,,,
200.02,2.594e+3,,,,2.594e+3,1.048e-4,,,
200.03,2.775e+3,,,,2.775e+3,1.205e-4,,,
200.05,2.775e+3,,,,2.775e+3,1.727e-4,,,
200.07,2.318e+3,,,,2.318e+3,2.569e-4,,,
200.08,1.980e+3,,,,1.980e+3,3.071e-4,,,
200.1,1.263e+3,,,,1.263e+3,4.034e-4,,,
200.12,6.728e+2,,,,6.728e+2,4.617e-4,,,
200.13,4.590e+2,,,,4.590e+2,4.676e-4,,,
200.15,1.867e+2,,,,1.867e+2,4.314e-4,,,
200.17,6.343e+1,,,,6.343e+1,3.497e-4,,,
200.18,3.456e+1,,,,3.456e+1,3.025e-4,,,
200.2,8.963e+0,,,,8.963e+0,2.168e-4,1.460e-22,,
200.22,1.942e+0,,,,1.942e+0,1.663e-4,1.165e-20,,
200.23,8.451e-1,,,,8.449e-1,1.624e-4,9.729e-20,,
200.25,1.400e-1,,,,1.398e-1,2.148e-4,5.937e-18,,
200.27,1.968e-2,,,,1.931e-2,3.712e-4,3.030e-16,,
200.28,7.203e-3,,,,6.710e-3,4.927e-4,2.024e-15,,
200.3,1.512e-3,,,,7.078e-4,8.044e-4,7.900e-14,,
200.32,1.195e-3,,,,6.237e-5,1.132e-3,2.579e-12,,
200.33,1.279e-3,,,,1.731e-5,1.262e-3,1.378e-11,,
200.35,1.378e-3,,,,1.165e-6,1.377e-3,3.439e-10,,
200.37,1.265e-3,,,,7.237e-8,1.265e-3,7.181e-9,,
200.38,1.141e-3,,,,4.418e-8,1.141e-3,3.068e-8,,
200.4,8.420e-4,,,,4.745e-7,8.410e-4,4.900e-7,,
200.41,7.071e-4,,,,1.771e-6,7.035e-4,1.831e-6,,
200.43,5.700e-4,,,,2.162e-5,5.260e-4,2.236e-5,,
200.45,9.596e-4,,,,2.209e-4,5.103e-4,2.284e-4,,
200.46,1.897e-3,,,,6.601e-4,5.539e-4,6.826e-4,,
200.48,1.118e-2,,,,5.156e-3,6.904e-4,5.332e-3,,
200.5,6.932e-2,,,,3.368e-2,8.102e-4,3.483e-2,,
200.51,1.646e-1,,,,8.050e-2,8.397e-4,8.326e-2,,
200.53,8.190e-1,,,,4.022e-1,8.226e-4,4.160e-1,,
200.55,3.420e+0,,,,1.681e+0,7.293e-4,1.738e+0,,
200.56,6.537e+0,,,,3.213e+0,6.720e-4,3.323e+0,,
200.58,2.089e+1,,,,1.027e+1,5.690e-4,1.062e+1,,
200.6,5.583e+1,,,,2.744e+1,4.982e-4,2.838e+1,,
200.61,8.535e+1,,,,4.195e+1,4.717e-4,4.340e+1,,
200.63,1.745e+2,,,,8.576e+1,4.190e-4,8.871e+1,,
200.65,2.983e+2,,,,1.466e+2,3.540e-4,1.517e+2,,
200.66,3.647e+2,,,,1.793e+2,3.196e-4,1.854e+2,,
200.68,4.769e+2,,,,2.344e+2,2.714e-4,2.425e+2,,
200.7,5.214e+2,,,,2.563e+2,2.941e-4,2.651e+2,,
200.71,5.099e+2,,,,2.506e+2,3.463e-4,2.593e+2,,
200.73,4.264e+2,,,,2.096e+2,5.426e-4,2.168e+2,,
200.75,2.983e+2,,,,1.466e+2,8.335e-4,1.517e+2,,
200.76,2.333e+2,,,,1.147e+2,9.908e-4,1.186e+2,,
200.78,1.248e+2,,,,6.134e+1,1.265e-3,6.345e+1,,
200.8,5.583e+1,,,,2.744e+1,1.414e-3,2.838e+1,,
200.81,3.492e+1,,,,1.717e+1,1.426e-3,1.775e+1,,
200.83,1.195e+1,,,,5.878e+0,1.330e-3,6.075e+0,,
200.84,6.551e+0,,,,3.227e+0,1.233e-3,3.323e+0,,
200.86,1.812e+0,,,,9.414e-1,9.777e-4,8.696e-1,,
200.88,9.721e-1,,,,7.811e-1,6.929e-4,1.903e-1,,
200.89,1.525e+0,,,,1.441e+0,5.573e-4,8.326e-2,,
200.91,6.211e+0,,,,6.196e+0,3.261e-4,1.394e-2,,
200.93,2.352e+1,,,,2.351e+1,1.652e-4,1.951e-3,,
200.94,4.289e+1,,,,4.289e+1,1.111e-4,6.826e-4,,
200.96,1.248e+2,,,,1.248e+2,4.516e-5,7.308e-5,,
200.98,3.041e+2,,,,3.041e+2,1.748e-5,6.543e-6,,
200.99,4.441e+2,,,,4.441e+2,1.206e-5,1.831e-6,,
201.01,8.282e+2,,,,8.282e+2,1.064e-5,1.254e-7,,
201.03,1.293e+3,,,,1.293e+3,1.746e-5,7.184e-9,,
201.04,1.511e+3,,,,1.511e+3,2.374e-5,1.623e-9,,
201.06,1.805e+3,,,,1.805e+3,4.365e-5,5.003e-10,,
201.08,1.805e+3,,,,1.805e+3,7.622e-5,9.600e-9,,
201.09,1.689e+3,,,,1.689e+3,9.767e-5,4.242e-8,,
201.11,1.293e+3,,,,1.293e+3,1.480e-4,7.257e-7,,
201.13,8.282e+2,,,,8.282e+2,1.984e-4,1.040e-5,,
201.14,6.201e+2,,,,6.201e+2,2.189e-4,3.681e-5,,
201.16,3.041e+2,,,,3.041e+2,2.432e-4,4.040e-4,,
201.18,1.248e+2,,,,1.248e+2,2.449e-4,3.714e-3,,
201.19,7.483e+1,,,,7.482e+1,2.404e-4,1.053e-2,,
201.21,2.359e+1,,,,2.351e+1,2.299e-4,7.420e-2,,
201.22,1.251e+1,,,,1.233e+1,2.269e-4,1.842e-1,,
201.24,3.961e+0,,,,2.966e+0,2.254e-4,9.944e-1,,
201.26,5.092e+0,,,,5.971e-1,2.211e-4,4.494e+0,,
201.27,9.191e+0,,,,2.507e-1,2.135e-4,8.940e+0,,
201.29,3.100e+1,,,,3.898e-2,1.828e-4,3.096e+1,,
201.31,8.981e+1,,,,8.223e-3,1.361e-4,8.980e+1,,
201.32,1.431e+2,,,,1.085e-2,1.108e-4,1.431e+2,,
201.34,3.180e+2,,,,6.466e-2,6.603e-5,3.180e+2,,
201.36,5.921e+2,,,,3.796e-1,3.664e-5,5.918e+2,,
201.37,7.562e+2,,,,8.616e-1,2.878e-5,7.553e+2,,
201.39,1.081e+3,,,,3.887e+0,2.591e-5,1.077e+3,,
201.41,1.301e+3,,,,1.469e+1,3.784e-5,1.286e+3,,
201.42,1.342e+3,,,,2.671e+1,4.845e-5,1.315e+3,,
201.44,1.281e+3,,,,7.737e+1,7.643e-5,1.203e+3,,
201.46,1.110e+3,,,,1.877e+2,1.077e-4,9.222e+2,,
201.47,1.029e+3,,,,2.735e+2,1.216e-4,7.553e+2,,
201.49,9.522e+2,,,,5.087e+2,1.392e-4,4.435e+2,,
201.51,1.010e+3,,,,7.923e+2,1.374e-4,2.181e+2,,
201.52,1.068e+3,,,,9.252e+2,1.290e-4,1.431e+2,,
201.54,1.159e+3,,,,1.105e+3,1.016e-4,5.391e+1,,
201.56,1.122e+3,,,,1.105e+3,7.020e-5,1.701e+1,,
201.57,1.043e+3,,,,1.034e+3,5.678e-5,8.940e+0,,
201.59,7.944e+2,,,,7.923e+2,3.950e-5,2.162e+0,,
201.6,6.500e+2,,,,6.490e+2,3.639e-5,9.944e-1,,
201.62,3.816e+2,,,,3.814e+2,4.025e-5,1.842e-1,,
201.64,1.877e+2,,,,1.877e+2,5.324e-5,2.859e-2,,
201.65,1.232e+2,,,,1.232e+2,6.111e-5,1.053e-2,,
201.67,4.659e+1,,,,4.659e+1,7.560e-5,1.252e-3,,
201.69,1.534e+1,,,,1.534e+1,8.449e-5,1.247e-4,,
201.7,9.197e+0,,,,9.197e+0,8.594e-5,3.681e-5,,
201.72,8.482e+0,,,,8.482e+0,8.253e-5,2.808e-6,,
201.74,2.525e+1,,,,2.525e+1,7.230e-5,1.794e-7,,
201.75,4.531e+1,,,,4.531e+1,6.590e-5,4.242e-8,,
201.77,1.303e+2,,,,1.303e+2,5.424e-5,2.077e-9,,
201.79,3.153e+2,,,,3.153e+2,4.882e-5,8.513e-11,,
201.8,4.589e+2,,,,4.589e+2,4.943e-5,1.613e-11,,
201.82,8.516e+2,,,,8.516e+2,5.615e-5,5.066e-13,,
201.84,1.324e+3,,,,1.324e+3,6.489e-5,1.333e-14,,
201.85,1.546e+3,,,,1.546e+3,6.757e-5,2.022e-15,,
201.87,1.845e+3,,,,1.845e+3,6.603e-5,4.076e-17,,
201.89,1.845e+3,,,,1.845e+3,5.493e-5,6.880e-19,,
201.9,1.727e+3,,,,1.727e+3,4.699e-5,8.363e-20,,
201.92,1.329e+3,,,,1.329e+3,3.017e-5,1.082e-21,,
201.94,8.683e+2,,,,8.683e+2,1.625e-5,8.957e-22,,
201.95,6.693e+2,,,,6.693e+2,1.116e-5,8.027e-22,,
201.97,4.023e+2,,,,4.023e+2,4.613e-6,6.167e-22,,
201.98,3.455e+2,,,,3.455e+2,2.776e-6,5.237e-22,,
202,3.841e+2,,,,3.841e+2,8.822e-7,3.376e-22,,
202.02,5.915e+2,,,,5.915e+2,2.454e-7,1.516e-22,,
202.03,7.352e+2,,,,7.352e+2,1.378e-7,5.861e-23,,
202.05,1.031e+3,,,,1.031e+3,1.252e-7,4.716e-21,,
202.07,1.226e+3,,,,1.226e+3,3.544e-7,3.184e-19,,
202.08,1.253e+3,,,,1.253e+3,6.092e-7,2.450e-18,,
202.1,1.147e+3,,,,1.147e+3,1.601e-6,1.271e-16,,
202.12,8.805e+2,,,,8.805e+2,3.540e-6,5.534e-15,,
202.13,7.221e+2,,,,7.221e+2,4.931e-6,3.419e-14,,
202.15,4.255e+2,,,,4.255e+2,8.411e-6,1.144e-12,,
202.17,2.102e+2,,,,2.102e+2,1.217e-5,3.211e-11,,
202.18,1.383e+2,,,,1.383e+2,1.386e-5,1.593e-10,,
202.2,5.242e+1,,,,5.242e+1,1.657e-5,3.437e-9,,
202.22,1.666e+1,,,,1.666e+1,1.931e-5,6.222e-8,,
202.23,8.794e+0,,,,8.794e+0,2.148e-5,2.479e-7,,
202.25,2.146e+0,,,,2.146e+0,2.957e-5,3.448e-6,,
202.27,4.390e-1,,,,4.389e-1,4.421e-5,4.025e-5,,
202.28,1.860e-1,,,,1.858e-1,5.358e-5,1.287e-4,,
202.3,3.041e-2,,,,2.918e-2,7.275e-5,1.155e-3,,
202.32,1.262e-2,,,,3.841e-3,8.544e-5,8.692e-3,,
202.33,2.372e-2,,,,1.304e-3,8.707e-5,2.233e-2,,
202.35,1.294e-1,,,,1.318e-4,7.954e-5,1.292e-1,,
202.36,2.909e-1,,,,3.922e-5,7.125e-5,2.908e-1,,
202.38,1.293e+0,,,,3.042e-6,5.029e-5,1.293e+0,,
202.4,4.822e+0,,,,1.978e-7,3.049e-5,4.822e+0,,
202.41,8.721e+0,,,,4.721e-8,2.305e-5,8.721e+0,,
202.43,2.500e+1,,,,2.356e-9,1.545e-5,2.500e+1,,
202.45,6.016e+1,,,,9.860e-11,1.969e-5,6.016e+1,,
202.46,8.739e+1,,,,1.888e-11,2.723e-5,8.739e+1,,
202.48,1.619e+2,,,,6.064e-13,5.566e-5,1.619e+2,,
202.5,2.525e+2,,,,1.633e-14,1.042e-4,2.525e+2,,
202.51,2.963e+2,,,,2.508e-15,1.357e-4,2.963e+2,,
202.53,3.633e+2,,,,5.184e-17,2.070e-4,3.633e+2,,
202.55,3.923e+2,,,,8.983e-19,2.749e-4,3.923e+2,,
202.56,3.962e+2,,,,1.107e-19,3.009e-4,3.962e+2,,
202.58,4.056e+2,,,,1.472e-21,3.251e-4,4.056e+2,,
202.6,4.483e+2,,,,1.327e-21,3.056e-4,4.483e+2,,
202.61,4.864e+2,,,,1.255e-21,2.809e-4,4.864e+2,,
202.63,5.786e+2,,,,1.110e-21,2.129e-4,5.786e+2,,
202.65,6.428e+2,,,,9.650e-22,1.388e-4,6.428e+2,,
202.66,6.466e+2,,,,8.925e-22,1.058e-4,6.466e+2,,
202.68,5.833e+2,,,,7.476e-22,5.454e-5,5.833e+2,,
202.7,4.460e+2,,,,6.027e-22,2.392e-5,4.460e+2,,
202.71,3.657e+2,,,,5.303e-22,1.489e-5,3.657e+2,,
202.73,2.159e+2,,,,3.853e-22,5.094e-6,2.159e+2,,
202.75,1.070e+2,,,,3.008e-20,1.485e-6,1.070e+2,,
202.76,7.059e+1,,,,2.490e-19,7.706e-7,7.059e+1,,
202.78,2.691e+1,,,,1.497e-17,2.789e-7,2.691e+1,,
202.79,1.556e+1,,,,1.087e-16,2.885e-7,1.556e+1,,
202.81,4.561e+0,,,,5.031e-15,7.345e-7,4.561e+0,,
202.83,1.122e+0,,,,1.956e-13,2.141e-6,1.122e+0,,
202.84,5.211e-1,,,,1.142e-12,3.487e-6,5.211e-1,,
202.86,9.854e-2,,,,3.419e-11,8.223e-6,9.854e-2,,
202.88,1.565e-2,,,,8.597e-10,1.642e-5,1.564e-2,,
202.89,5.855e-3,,,,4.038e-9,2.178e-5,5.833e-3,,
202.91,7.454e-4,,,,7.818e-8,3.364e-5,7.117e-4,,
202.93,1.179e-4,,,,1.271e-6,4.373e-5,7.287e-5,,
202.94,7.337e-5,,,,4.803e-6,4.673e-5,2.183e-5,,
202.96,1.088e-4,,,,6.014e-5,4.698e-5,1.718e-6,,
202.98,6.728e-4,,,,6.325e-4,4.012e-5,1.135e-7,,
202.99,1.957e-3,,,,1.922e-3,3.508e-5,2.732e-8,,
203.01,1.559e-2,,,,1.556e-2,2.473e-5,1.387e-9,,
203.03,1.059e-1,,,,1.059e-1,1.690e-5,5.912e-11,,
203.04,2.587e-1,,,,2.587e-1,1.436e-5,1.143e-11,,
203.06,1.355e+0,,,,1.355e+0,1.151e-5,3.744e-13,,
203.08,5.961e+0,,,,5.961e+0,1.005e-5,1.029e-14,,
203.09,1.171e+1,,,,1.171e+1,9.333e-6,1.598e-15,,
203.11,3.968e+1,,,,3.968e+1,7.463e-6,3.378e-17,,
203.13,1.129e+2,,,,1.129e+2,5.179e-6,5.991e-19,,
203.14,1.784e+2,,,,1.784e+2,4.060e-6,7.471e-20,,
203.16,3.910e+2,,,,3.910e+2,2.197e-6,1.019e-21,,
203.17,5.421e+2,,,,5.421e+2,1.515e-6,1.011e-21,,
203.19,9.145e+2,,,,9.145e+2,6.329e-7,9.955e-22,,
203.21,1.296e+3,,,,1.296e+3,2.241e-7,9.799e-22,,
203.22,1.445e+3,,,,1.445e+3,1.289e-7,9.721e-22,,
203.24,1.577e+3,,,,1.577e+3,6.696e-8,9.566e-22,,
203.26,1.445e+3,,,,1.445e+3,1.731e-7,9.410e-22,,
203.27,1.296e+3,,,,1.296e+3,3.480e-7,9.333e-22,,
203.29,9.145e+2,,,,9.145e+2,1.322e-6,9.177e-22,,
203.31,5.421e+2,,,,5.421e+2,4.314e-6,9.022e-22,,
203.32,3.910e+2,,,,3.910e+2,7.346e-6,8.944e-22,,
203.34,1.784e+2,,,,1.784e+2,1.897e-5,8.788e-22,,
203.36,6.841e+1,,,,6.841e+1,4.215e-5,8.633e-22,,
203.37,3.968e+1,,,,3.968e+1,5.946e-5,8.555e-22,,
203.39,1.171e+1,,,,1.171e+1,1.064e-4,8.400e-22,,
203.41,2.913e+0,,,,2.913e+0,1.660e-4,8.244e-22,,
203.42,1.378e+0,,,,1.378e+0,1.975e-4,8.166e-22,,
203.44,4.002e-1,,,,4.000e-1,2.546e-4,8.011e-22,,
203.46,7.770e-1,,,,7.767e-1,2.935e-4,7.855e-22,,
203.47,1.587e+0,,,,1.587e+0,3.041e-4,7.778e-22,,
203.49,6.305e+0,,,,6.304e+0,3.096e-4,7.622e-22,,
203.51,2.125e+1,,,,2.125e+1,3.043e-4,7.467e-22,,
203.52,3.655e+1,,,,3.655e+1,3.020e-4,7.389e-22,,
203.54,9.498e+1,,,,9.498e+1,3.028e-4,7.233e-22,,
203.55,1.435e+2,,,,1.435e+2,3.059e-4,7.156e-22,,
203.57,2.873e+2,,,,2.873e+2,3.121e-4,7.000e-22,,
203.59,4.836e+2,,,,4.836e+2,3.097e-4,6.845e-22,,
203.6,5.880e+2,,,,5.880e+2,3.044e-4,6.767e-22,,
203.62,7.629e+2,,,,7.629e+2,2.922e-4,6.611e-22,,
203.64,8.320e+2,,,,8.320e+2,2.937e-4,6.456e-22,,
203.65,8.142e+2,,,,8.142e+2,3.046e-4,6.378e-22,,
203.67,6.844e+2,,,,6.844e+2,3.463e-4,6.223e-22,,
203.69,4.836e+2,,,,4.836e+2,3.989e-4,6.067e-22,,
203.7,3.809e+2,,,,3.809e+2,4.204e-4,5.989e-22,,
203.72,2.075e+2,,,,2.075e+2,4.398e-4,5.834e-22,,
203.74,9.498e+1,,,,9.498e+1,4.237e-4,5.678e-22,,
203.75,6.022e+1,,,,6.022e+1,4.059e-4,5.601e-22,,
203.77,2.125e+1,,,,2.125e+1,3.638e-4,5.445e-22,,
203.79,6.303e+0,,,,6.302e+0,3.264e-4,5.290e-22,,
203.8,3.217e+0,,,,3.216e+0,3.117e-4,5.212e-22,,
203.82,7.396e-1,,,,7.393e-1,2.901e-4,5.056e-22,,
203.84,1.737e-1,,,,1.735e-1,2.778e-4,4.901e-22,,
203.85,1.434e-1,,,,1.431e-1,2.753e-4,4.823e-22,,
203.87,5.317e-1,,,,5.314e-1,2.782e-4,4.668e-22,,
203.89,2.703e+0,,,,2.703e+0,2.889e-4,4.512e-22,,
203.9,5.758e+0,,,,5.757e+0,2.951e-4,4.434e-22,,
203.92,2.296e+1,,,,2.296e+1,3.040e-4,4.279e-22,,
203.93,4.296e+1,,,,4.296e+1,3.054e-4,4.201e-22,,
203.95,1.322e+2,,,,1.322e+2,3.031e-4,4.046e-22,,
203.97,3.421e+2,,,,3.421e+2,3.020e-4,3.890e-22,,
203.98,5.158e+2,,,,5.158e+2,3.061e-4,3.812e-22,,
204,1.030e+3,,,,1.030e+3,3.287e-4,3.657e-22,,
204.02,1.730e+3,,,,1.730e+3,3.657e-4,3.501e-22,,
204.03,2.101e+3,,,,2.101e+3,3.836e-4,3.424e-22,,
204.05,2.724e+3,,,,2.724e+3,4.010e-4,3.268e-22,,
204.07,2.970e+3,,,,2.970e+3,3.781e-4,3.113e-22,,
204.08,2.906e+3,,,,2.906e+3,3.503e-4,3.035e-22,,
204.1,2.445e+3,,,,2.445e+3,2.715e-4,2.879e-22,,
204.12,1.730e+3,,,,1.730e+3,1.825e-4,2.724e-22,,
204.13,1.364e+3,,,,1.364e+3,1.416e-4,2.646e-22,,
204.15,7.447e+2,,,,7.447e+2,7.624e-5,2.491e-22,,
204.17,3.421e+2,,,,3.421e+2,3.526e-5,2.335e-22,,
204.18,2.173e+2,,,,2.173e+2,2.265e-5,2.257e-22,,
204.2,7.700e+1,,,,7.700e+1,8.430e-6,2.102e-22,,
204.22,2.296e+1,,,,2.296e+1,3.157e-6,1.946e-22,,
204.23,1.175e+1,,,,1.175e+1,2.399e-6,1.702e-21,,
204.25,2.702e+0,,,,2.702e+0,3.416e-6,1.145e-19,,
204.27,5.228e-1,,,,5.228e-1,8.218e-6,6.483e-18,,
204.28,2.156e-1,,,,2.156e-1,1.279e-5,4.575e-17,,
204.3,3.221e-2,,,,3.218e-2,2.921e-5,2.002e-15,,
204.31,1.170e-2,,,,1.165e-2,4.273e-5,1.242e-14,,
204.33,1.428e-3,,,,1.342e-3,8.535e-5,4.202e-13,,
204.35,2.845e-4,,,,1.301e-4,1.544e-4,1.197e-11,,
204.36,2.374e-4,,,,3.795e-5,1.995e-4,5.991e-11,,
204.38,3.096e-4,,,,2.837e-6,3.068e-4,1.319e-9,,
204.4,4.235e-4,,,,1.785e-7,4.233e-4,2.446e-8,,
204.41,4.790e-4,,,,4.194e-8,4.788e-4,9.877e-8,,
204.43,5.754e-4,,,,2.035e-9,5.740e-4,1.416e-6,,
204.45,6.571e-4,,,,8.309e-11,6.400e-4,1.708e-5,,
204.46,7.158e-4,,,,1.573e-11,6.602e-4,5.565e-5,,
204.48,1.190e-3,,,,4.956e-13,6.712e-4,5.191e-4,,
204.5,4.716e-3,,,,1.313e-14,6.376e-4,4.078e-3,,
204.51,1.132e-2,,,,2.003e-15,6.040e-4,1.072e-2,,
204.53,6.558e-2,,,,4.095e-17,5.105e-4,6.507e-2,,
204.55,3.331e-1,,,,7.043e-19,4.012e-4,3.327e-1,,
204.56,7.058e-1,,,,8.656e-20,3.479e-4,7.054e-1,,
204.58,2.788e+0,,,,1.286e-21,2.527e-4,2.788e+0,,
204.6,9.278e+0,,,,1.079e-20,1.755e-4,9.278e+0,,
204.61,1.587e+1,,,,8.974e-20,1.432e-4,1.587e+1,,
204.63,4.082e+1,,,,5.457e-18,9.043e-5,4.082e+1,,
204.65,8.842e+1,,,,2.796e-16,5.295e-5,8.842e+1,,
204.66,1.220e+2,,,,1.877e-15,3.975e-5,1.220e+2,,
204.68,2.043e+2,,,,7.441e-14,2.276e-5,2.043e+2,,
204.69,2.478e+2,,,,4.393e-13,1.787e-5,2.478e+2,,
204.71,3.207e+2,,,,1.347e-11,1.225e-5,3.207e+2,,
204.73,3.494e+2,,,,3.481e-10,9.124e-6,3.494e+2,,
204.74,3.420e+2,,,,1.660e-9,7.833e-6,3.420e+2,,
204.76,2.880e+2,,,,3.317e-8,5.548e-6,2.880e+2,,
204.78,2.043e+2,,,,5.588e-7,4.318e-6,2.043e+2,,
204.79,1.613e+2,,,,2.151e-6,4.612e-6,1.613e+2,,
204.81,8.842e+1,,,,2.803e-5,8.922e-6,8.842e+1,,
204.83,4.082e+1,,,,3.078e-4,2.248e-5,4.082e+1,,
204.84,2.600e+1,,,,9.565e-4,3.486e-5,2.600e+1,,
204.86,9.286e+0,,,,8.125e-3,7.496e-5,9.278e+0,,
204.88,2.846e+0,,,,5.816e-2,1.365e-4,2.788e+0,,
204.89,1.579e+0,,,,1.459e-1,1.727e-4,1.433e+0,,
204.91,1.141e+0,,,,8.081e-1,2.434e-4,3.327e-1,,
204.93,3.836e+0,,,,3.771e+0,2.889e-4,6.509e-2,,
204.94,7.667e+0,,,,7.639e+0,2.951e-4,2.704e-2,,
204.96,2.758e+1,,,,2.758e+1,2.709e-4,4.638e-3,,
204.98,8.389e+1,,,,8.389e+1,2.095e-4,4.872e-3,,
204.99,1.372e+2,,,,1.372e+2,1.727e-4,1.156e-2,,
205.01,3.230e+2,,,,3.229e+2,1.033e-4,6.860e-2,,
205.03,6.406e+2,,,,6.403e+2,5.203e-5,3.480e-1,,
205.04,8.463e+2,,7.044e-21,,8.456e+2,3.463e-5,7.354e-1,,
205.06,1.300e+3,,5.431e-19,,1.297e+3,1.349e-5,2.888e+0,,
205.08,1.686e+3,,3.531e-17,,1.677e+3,4.426e-6,9.557e+0,,
205.09,1.804e+3,,2.671e-16,,1.788e+3,2.378e-6,1.631e+1,,
205.11,1.830e+3,,1.345e-14,,1.788e+3,6.033e-7,4.176e+1,,
205.12,1.739e+3,,8.953e-14,,1.677e+3,2.850e-7,6.268e+1,,
205.14,1.421e+3,,3.491e-12,,1.297e+3,5.592e-8,1.242e+2,,
205.16,1.053e+3,,1.148e-10,,8.456e+2,9.243e-9,2.075e+2,,
205.17,8.917e+2,,6.177e-10,,6.403e+2,3.525e-9,2.515e+2,,
205.19,6.479e+2,,1.573e-8,,3.229e+2,4.602e-10,3.250e+2,,
205.21,4.912e+2,,3.379e-7,,1.372e+2,1.307e-10,3.540e+2,,
205.22,4.304e+2,,1.469e-6,,8.389e+1,2.389e-10,3.465e+2,,
205.24,3.196e+2,,2.444e-5,,2.758e+1,1.464e-9,2.920e+2,,
205.26,2.151e+2,,3.429e-4,,7.639e+0,8.052e-9,2.075e+2,,
205.27,1.678e+2,,1.205e-3,,3.771e+0,1.772e-8,1.640e+2,,
205.29,9.097e+1,,1.309e-2,,8.122e-1,7.554e-8,9.015e+1,,
205.31,4.206e+1,,1.199e-1,,1.749e-1,2.715e-7,4.176e+1,,
205.32,2.714e+1,,3.406e-1,,1.306e-1,4.829e-7,2.666e+1,,
205.34,1.240e+1,,2.417e+0,,4.064e-1,1.344e-6,9.582e+0,,
205.36,1.933e+1,,1.446e+1,,1.848e+0,3.156e-6,3.022e+0,,
205.37,3.871e+1,,3.319e+1,,3.731e+0,4.538e-6,1.785e+0,,
205.39,1.688e+2,,1.538e+2,,1.340e+1,8.279e-6,1.610e+0,,
205.41,6.464e+2,,6.012e+2,,4.056e+1,1.287e-5,4.597e+0,,
205.42,1.189e+3,,1.115e+3,,6.621e+1,1.521e-5,8.077e+0,,
205.44,3.553e+3,,3.375e+3,,1.553e+2,1.979e-5,2.238e+1,,
205.46,8.975e+3,,8.616e+3,,3.070e+2,2.623e-5,5.246e+1,,
205.47,1.339e+4,,1.291e+4,,4.050e+2,3.227e-5,7.535e+1,,
205.49,2.629e+4,,2.553e+4,,6.202e+2,5.894e-5,1.368e+2,,
205.5,3.457e+4,,3.367e+4,,7.200e+2,8.486e-5,1.729e+2,,
205.52,5.266e+4,,5.156e+4,,8.538e+2,1.775e-4,2.432e+2,,
205.54,6.772e+4,,6.658e+4,,8.538e+2,3.410e-4,2.884e+2,,
205.55,7.206e+4,,7.097e+4,,8.009e+2,4.500e-4,2.946e+2,,
205.57,7.186e+4,,7.097e+4,,6.202e+2,7.029e-4,2.705e+2,,
205.59,6.046e+4,,5.985e+4,,4.050e+2,9.476e-4,2.095e+2,,
205.6,5.204e+4,,5.156e+4,,3.070e+2,1.043e-3,1.729e+2,,
205.62,3.393e+4,,3.367e+4,,1.553e+2,1.144e-3,1.037e+2,,
205.64,1.867e+4,,1.855e+4,,6.621e+1,1.124e-3,5.246e+1,,
205.65,1.299e+4,,1.291e+4,,4.056e+1,1.081e-3,3.500e+1,,
205.67,5.536e+3,,5.509e+3,,1.340e+1,9.676e-4,1.371e+1,,
205.69,1.990e+3,,1.982e+3,,3.731e+0,8.513e-4,4.528e+0,,
205.7,1.119e+3,,1.115e+3,,1.847e+0,7.952e-4,2.442e+0,,
205.72,3.117e+2,,3.106e+2,,3.983e-1,6.813e-4,6.247e-1,,
205.74,7.320e+1,,7.299e+1,,7.243e-2,5.676e-4,1.355e-1,,
205.75,3.328e+1,,3.319e+1,,2.898e-2,5.195e-4,6.080e-2,,
205.77,6.068e+0,,6.039e+0,,4.081e-3,4.714e-4,2.453e-2,,
205.79,1.017e+0,,9.268e-1,,4.847e-4,5.202e-4,8.881e-2,,
205.8,5.417e-1,,3.406e-1,,1.567e-4,5.833e-4,2.004e-1,,
205.82,9.620e-1,,4.048e-2,,1.441e-5,7.603e-4,9.208e-1,,
205.84,3.583e+0,,4.077e-3,,1.118e-6,9.382e-4,3.578e+0,,
205.85,6.622e+0,,1.283e-3,,2.920e-7,1.002e-3,6.619e+0,,
205.87,1.995e+1,,1.088e-3,,1.754e-8,1.054e-3,1.994e+1,,
205.88,3.249e+1,,3.351e-3,,4.032e-9,1.046e-3,3.248e+1,,
205.9,7.592e+1,,3.275e-2,,1.875e-10,1.003e-3,7.588e+1,,
205.92,1.499e+2,,2.722e-1,,7.354e-12,9.805e-4,1.496e+2,,
205.93,1.978e+2,,7.364e-1,,1.368e-12,9.865e-4,1.971e+2,,
205.95,3.060e+2,,4.747e+0,,1.093e-13,1.015e-3,3.012e+2,,
205.97,4.144e+2,,2.583e+1,,2.171e-12,1.026e-3,3.885e+2,,
205.98,4.706e+2,,5.655e+1,,1.152e-11,1.029e-3,4.141e+2,,
206,6.527e+2,,2.387e+2,,2.861e-10,1.161e-3,4.141e+2,,
206.02,1.200e+3,,8.503e+2,,6.000e-9,1.946e-3,3.494e+2,,
206.03,1.807e+3,,1.506e+3,,2.579e-8,2.918e-3,3.012e+2,,
206.05,4.359e+3,,4.162e+3,,4.197e-7,7.126e-3,1.971e+2,,
206.07,9.818e+3,,9.710e+3,,5.767e-6,1.620e-2,1.088e+2,,
206.08,1.399e+4,,1.392e+4,,2.007e-5,2.315e-2,7.588e+1,,
206.1,2.521e+4,,2.518e+4,,2.140e-4,4.184e-2,3.248e+1,,
206.12,3.847e+4,,3.846e+4,,1.927e-3,6.397e-2,1.174e+1,,
206.13,4.461e+4,,4.460e+4,,5.428e-3,7.426e-2,6.619e+0,,
206.15,5.284e+4,,5.284e+4,,3.793e-2,8.814e-2,1.854e+0,,
206.17,5.284e+4,,5.284e+4,,2.238e-1,8.835e-2,4.383e-1,,
206.18,4.958e+4,,4.958e+4,,5.103e-1,8.302e-2,1.999e-1,,
